# LSST transmission (instrument+atmosphere)
#   wavelength[nm] Thoughput
320.000000 0.000000
320.100000 0.000329
320.200000 0.000689
320.300000 0.001081
320.400000 0.001505
320.500000 0.001963
320.600000 0.002460
320.700000 0.002996
320.800000 0.003571
320.900000 0.004188
321.000000 0.004846
321.100000 0.005034
321.200000 0.005226
321.300000 0.005422
321.400000 0.005622
321.500000 0.005825
321.600000 0.005992
321.700000 0.006160
321.800000 0.006330
321.900000 0.006502
322.000000 0.006674
322.100000 0.006876
322.200000 0.007080
322.300000 0.007287
322.400000 0.007496
322.500000 0.007708
322.600000 0.007988
322.700000 0.008276
322.800000 0.008570
322.900000 0.008870
323.000000 0.009177
323.100000 0.009531
323.200000 0.009893
323.300000 0.010264
323.400000 0.010643
323.500000 0.011031
323.600000 0.011356
323.700000 0.011688
323.800000 0.012025
323.900000 0.012369
324.000000 0.012717
324.100000 0.012997
324.200000 0.013278
324.300000 0.013560
324.400000 0.013845
324.500000 0.014130
324.600000 0.014411
324.700000 0.014693
324.800000 0.014977
324.900000 0.015263
325.000000 0.015550
325.100000 0.015950
325.200000 0.016357
325.300000 0.016769
325.400000 0.017187
325.500000 0.017610
325.600000 0.018115
325.700000 0.018631
325.800000 0.019157
325.900000 0.019692
326.000000 0.020236
326.100000 0.020772
326.200000 0.021318
326.300000 0.021872
326.400000 0.022436
326.500000 0.023007
326.600000 0.023473
326.700000 0.023945
326.800000 0.024422
326.900000 0.024904
327.000000 0.025390
327.100000 0.025811
327.200000 0.026233
327.300000 0.026658
327.400000 0.027085
327.500000 0.027512
327.600000 0.027966
327.700000 0.028425
327.800000 0.028887
327.900000 0.029352
328.000000 0.029819
328.100000 0.030466
328.200000 0.031121
328.300000 0.031785
328.400000 0.032458
328.500000 0.033138
328.600000 0.033902
328.700000 0.034679
328.800000 0.035468
328.900000 0.036269
329.000000 0.037082
329.100000 0.037783
329.200000 0.038493
329.300000 0.039211
329.400000 0.039938
329.500000 0.040670
329.600000 0.041273
329.700000 0.041884
329.800000 0.042499
329.900000 0.043119
330.000000 0.043744
330.100000 0.044272
330.200000 0.044804
330.300000 0.045337
330.400000 0.045873
330.500000 0.046409
330.600000 0.047006
330.700000 0.047611
330.800000 0.048220
330.900000 0.048832
331.000000 0.049448
331.100000 0.050193
331.200000 0.050944
331.300000 0.051618
331.400000 0.052298
331.500000 0.052958
331.600000 0.053735
331.700000 0.054517
331.800000 0.055306
331.900000 0.056103
332.000000 0.056907
332.100000 0.057591
332.200000 0.058280
332.300000 0.058971
332.400000 0.059668
332.500000 0.060373
332.600000 0.060961
332.700000 0.061549
332.800000 0.062140
332.900000 0.062735
333.000000 0.063333
333.100000 0.063785
333.200000 0.064239
333.300000 0.064691
333.400000 0.065143
333.500000 0.065600
333.600000 0.066139
333.700000 0.066675
333.800000 0.067213
333.900000 0.067754
334.000000 0.068298
334.100000 0.069006
334.200000 0.069719
334.300000 0.070434
334.400000 0.071154
334.500000 0.071885
334.600000 0.072649
334.700000 0.073380
334.800000 0.074117
334.900000 0.074748
335.000000 0.075383
335.100000 0.075903
335.200000 0.076426
335.300000 0.076951
335.400000 0.077480
335.500000 0.078011
335.600000 0.078454
335.700000 0.078898
335.800000 0.079345
335.900000 0.079793
336.000000 0.080242
336.100000 0.080578
336.200000 0.080915
336.300000 0.081251
336.400000 0.081588
336.500000 0.081925
336.600000 0.082262
336.700000 0.082599
336.800000 0.082937
336.900000 0.083275
337.000000 0.083613
337.100000 0.083990
337.200000 0.084368
337.300000 0.084747
337.400000 0.085126
337.500000 0.085507
337.600000 0.086055
337.700000 0.086605
337.800000 0.087158
337.900000 0.087712
338.000000 0.088270
338.100000 0.088799
338.200000 0.089331
338.300000 0.089864
338.400000 0.090400
338.500000 0.090937
338.600000 0.091373
338.700000 0.091811
338.800000 0.092250
338.900000 0.092690
339.000000 0.093131
339.100000 0.093532
339.200000 0.093934
339.300000 0.094336
339.400000 0.094739
339.500000 0.095143
339.600000 0.095476
339.700000 0.095809
339.800000 0.096142
339.900000 0.096476
340.000000 0.096809
340.100000 0.097179
340.200000 0.097548
340.300000 0.097919
340.400000 0.098290
340.500000 0.098662
340.600000 0.099108
340.700000 0.099556
340.800000 0.100005
340.900000 0.100455
341.000000 0.100906
341.100000 0.101327
341.200000 0.101749
341.300000 0.102172
341.400000 0.102597
341.500000 0.103023
341.600000 0.103450
341.700000 0.103879
341.800000 0.104309
341.900000 0.104741
342.000000 0.105173
342.100000 0.105581
342.200000 0.105990
342.300000 0.106400
342.400000 0.106810
342.500000 0.107222
342.600000 0.107555
342.700000 0.107890
342.800000 0.108224
342.900000 0.108559
343.000000 0.108894
343.100000 0.109204
343.200000 0.109515
343.300000 0.109826
343.400000 0.110137
343.500000 0.110449
343.600000 0.110762
343.700000 0.111075
343.800000 0.111389
343.900000 0.111704
344.000000 0.112019
344.100000 0.112374
344.200000 0.112729
344.300000 0.113085
344.400000 0.113441
344.500000 0.113798
344.600000 0.114237
344.700000 0.114677
344.800000 0.115118
344.900000 0.115559
345.000000 0.116001
345.100000 0.116393
345.200000 0.116786
345.300000 0.117180
345.400000 0.117573
345.500000 0.117967
345.600000 0.118318
345.700000 0.118670
345.800000 0.119022
345.900000 0.119375
346.000000 0.119728
346.100000 0.120067
346.200000 0.120406
346.300000 0.120746
346.400000 0.121086
346.500000 0.121428
346.600000 0.121770
346.700000 0.122113
346.800000 0.122457
346.900000 0.122801
347.000000 0.123145
347.100000 0.123494
347.200000 0.123842
347.300000 0.124192
347.400000 0.124542
347.500000 0.124893
347.600000 0.125244
347.700000 0.125596
347.800000 0.125948
347.900000 0.126301
348.000000 0.126655
348.100000 0.126997
348.200000 0.127340
348.300000 0.127684
348.400000 0.128028
348.500000 0.128373
348.600000 0.128765
348.700000 0.129157
348.800000 0.129551
348.900000 0.129945
349.000000 0.130340
349.100000 0.130677
349.200000 0.131014
349.300000 0.131351
349.400000 0.131688
349.500000 0.132025
349.600000 0.132361
349.700000 0.132696
349.800000 0.133031
349.900000 0.133366
350.000000 0.133700
350.100000 0.133987
350.200000 0.134274
350.300000 0.134560
350.400000 0.134845
350.500000 0.135130
350.600000 0.135461
350.700000 0.135792
350.800000 0.136123
350.900000 0.136453
351.000000 0.136784
351.100000 0.137048
351.200000 0.137313
351.300000 0.137577
351.400000 0.137842
351.500000 0.138108
351.600000 0.138423
351.700000 0.138737
351.800000 0.139052
351.900000 0.139367
352.000000 0.139683
352.100000 0.140062
352.200000 0.140442
352.300000 0.140823
352.400000 0.141204
352.500000 0.141586
352.600000 0.141920
352.700000 0.142254
352.800000 0.142589
352.900000 0.142925
353.000000 0.143261
353.100000 0.143570
353.200000 0.143879
353.300000 0.144189
353.400000 0.144499
353.500000 0.144810
353.600000 0.145072
353.700000 0.145335
353.800000 0.145597
353.900000 0.145860
354.000000 0.146124
354.100000 0.146458
354.200000 0.146792
354.300000 0.147128
354.400000 0.147463
354.500000 0.147800
354.600000 0.148137
354.700000 0.148475
354.800000 0.148814
354.900000 0.149153
355.000000 0.149493
355.100000 0.149813
355.200000 0.150134
355.300000 0.150455
355.400000 0.150777
355.500000 0.151100
355.600000 0.151423
355.700000 0.151747
355.800000 0.152072
355.900000 0.152397
356.000000 0.152723
356.100000 0.152995
356.200000 0.153268
356.300000 0.153541
356.400000 0.153814
356.500000 0.154087
356.600000 0.154412
356.700000 0.154737
356.800000 0.155062
356.900000 0.155388
357.000000 0.155714
357.100000 0.156038
357.200000 0.156362
357.300000 0.156686
357.400000 0.157011
357.500000 0.157336
357.600000 0.157661
357.700000 0.157987
357.800000 0.158314
357.900000 0.158640
358.000000 0.158968
358.100000 0.159302
358.200000 0.159637
358.300000 0.159973
358.400000 0.160309
358.500000 0.160645
358.600000 0.160929
358.700000 0.161213
358.800000 0.161497
358.900000 0.161782
359.000000 0.162067
359.100000 0.162392
359.200000 0.162718
359.300000 0.163045
359.400000 0.163372
359.500000 0.163700
359.600000 0.164029
359.700000 0.164358
359.800000 0.164688
359.900000 0.165019
360.000000 0.165350
360.100000 0.165616
360.200000 0.165882
360.300000 0.166149
360.400000 0.166416
360.500000 0.166684
360.600000 0.167006
360.700000 0.167329
360.800000 0.167653
360.900000 0.167977
361.000000 0.168302
361.100000 0.168639
361.200000 0.168977
361.300000 0.169315
361.400000 0.169653
361.500000 0.169992
361.600000 0.170331
361.700000 0.170671
361.800000 0.171012
361.900000 0.171353
362.000000 0.171694
362.100000 0.171974
362.200000 0.172255
362.300000 0.172536
362.400000 0.172817
362.500000 0.173098
362.600000 0.173436
362.700000 0.173773
362.800000 0.174111
362.900000 0.174450
363.000000 0.174788
363.100000 0.175122
363.200000 0.175457
363.300000 0.175792
363.400000 0.176127
363.500000 0.176462
363.600000 0.176742
363.700000 0.177021
363.800000 0.177301
363.900000 0.177582
364.000000 0.177863
364.100000 0.178192
364.200000 0.178522
364.300000 0.178853
364.400000 0.179184
364.500000 0.179515
364.600000 0.179847
364.700000 0.180180
364.800000 0.180512
364.900000 0.180846
365.000000 0.181179
365.100000 0.181456
365.200000 0.181732
365.300000 0.182009
365.400000 0.182286
365.500000 0.182564
365.600000 0.182899
365.700000 0.183234
365.800000 0.183569
365.900000 0.183905
366.000000 0.184241
366.100000 0.184571
366.200000 0.184902
366.300000 0.185233
366.400000 0.185565
366.500000 0.185897
366.600000 0.186172
366.700000 0.186447
366.800000 0.186722
366.900000 0.186998
367.000000 0.187274
367.100000 0.187607
367.200000 0.187942
367.300000 0.188276
367.400000 0.188611
367.500000 0.188946
367.600000 0.189282
367.700000 0.189618
367.800000 0.189955
367.900000 0.190291
368.000000 0.190628
368.100000 0.190907
368.200000 0.191186
368.300000 0.191465
368.400000 0.191744
368.500000 0.192024
368.600000 0.192363
368.700000 0.192704
368.800000 0.193044
368.900000 0.193385
369.000000 0.193726
369.100000 0.194000
369.200000 0.194273
369.300000 0.194546
369.400000 0.194819
369.500000 0.195092
369.600000 0.195424
369.700000 0.195757
369.800000 0.196088
369.900000 0.196420
370.000000 0.196751
370.100000 0.197076
370.200000 0.197402
370.300000 0.197727
370.400000 0.198051
370.500000 0.198375
370.600000 0.198638
370.700000 0.198900
370.800000 0.199162
370.900000 0.199423
371.000000 0.199684
371.100000 0.200000
371.200000 0.200316
371.300000 0.200632
371.400000 0.200949
371.500000 0.201266
371.600000 0.201522
371.700000 0.201778
371.800000 0.202034
371.900000 0.202290
372.000000 0.202546
372.100000 0.202857
372.200000 0.203168
372.300000 0.203479
372.400000 0.203790
372.500000 0.204102
372.600000 0.204351
372.700000 0.204601
372.800000 0.204851
372.900000 0.205101
373.000000 0.205352
373.100000 0.205671
373.200000 0.205990
373.300000 0.206310
373.400000 0.206630
373.500000 0.206951
373.600000 0.207209
373.700000 0.207467
373.800000 0.207725
373.900000 0.207984
374.000000 0.208243
374.100000 0.208553
374.200000 0.208864
374.300000 0.209176
374.400000 0.209488
374.500000 0.209802
374.600000 0.210053
374.700000 0.210305
374.800000 0.210558
374.900000 0.210813
375.000000 0.211068
375.100000 0.211391
375.200000 0.211715
375.300000 0.212041
375.400000 0.212367
375.500000 0.212695
375.600000 0.212960
375.700000 0.213225
375.800000 0.213492
375.900000 0.213759
376.000000 0.214027
376.100000 0.214354
376.200000 0.214683
376.300000 0.215011
376.400000 0.215340
376.500000 0.215669
376.600000 0.215933
376.700000 0.216198
376.800000 0.216463
376.900000 0.216728
377.000000 0.216994
377.100000 0.217314
377.200000 0.217634
377.300000 0.217955
377.400000 0.218276
377.500000 0.218598
377.600000 0.218854
377.700000 0.219111
377.800000 0.219368
377.900000 0.219625
378.000000 0.219882
378.100000 0.220199
378.200000 0.220516
378.300000 0.220833
378.400000 0.221151
378.500000 0.221468
378.600000 0.221720
378.700000 0.221972
378.800000 0.222223
378.900000 0.222475
379.000000 0.222727
379.100000 0.222975
379.200000 0.223222
379.300000 0.223139
379.400000 0.223055
379.500000 0.222848
379.600000 0.222706
379.700000 0.222575
379.800000 0.222444
379.900000 0.222312
380.000000 0.222179
380.100000 0.221979
380.200000 0.221778
380.300000 0.221588
380.400000 0.221398
380.500000 0.221195
380.600000 0.221056
380.700000 0.220928
380.800000 0.220799
380.900000 0.220669
381.000000 0.220538
381.100000 0.220323
381.200000 0.220107
381.300000 0.219903
381.400000 0.219698
381.500000 0.219480
381.600000 0.219325
381.700000 0.219182
381.800000 0.219037
381.900000 0.218892
382.000000 0.218746
382.100000 0.218514
382.200000 0.218280
382.300000 0.218059
382.400000 0.217837
382.500000 0.217601
382.600000 0.217429
382.700000 0.217152
382.800000 0.216875
382.900000 0.216236
383.000000 0.215594
383.100000 0.214876
383.200000 0.214156
383.300000 0.213434
383.400000 0.212710
383.500000 0.211997
383.600000 0.211282
383.700000 0.210552
383.800000 0.209820
383.900000 0.209086
384.000000 0.208349
384.100000 0.207625
384.200000 0.206899
384.300000 0.206170
384.400000 0.205440
384.500000 0.204720
384.600000 0.204057
384.700000 0.203378
384.800000 0.202697
384.900000 0.202013
385.000000 0.201326
385.100000 0.200558
385.200000 0.199788
385.300000 0.199015
385.400000 0.198241
385.500000 0.197479
385.600000 0.196771
385.700000 0.196047
385.800000 0.195321
385.900000 0.194593
386.000000 0.193862
386.100000 0.193085
386.200000 0.192307
386.300000 0.191527
386.400000 0.190744
386.500000 0.189974
386.600000 0.189202
386.700000 0.188414
386.800000 0.187625
386.900000 0.186834
387.000000 0.186041
387.100000 0.185291
387.200000 0.184539
387.300000 0.183785
387.400000 0.183029
387.500000 0.182283
387.600000 0.181484
387.700000 0.180669
387.800000 0.179853
387.900000 0.179034
388.000000 0.178214
388.100000 0.177392
388.200000 0.176567
388.300000 0.175741
388.400000 0.174913
388.500000 0.174097
388.600000 0.173329
388.700000 0.172544
388.800000 0.171757
388.900000 0.170967
389.000000 0.170176
389.100000 0.169324
389.200000 0.168470
389.300000 0.167615
389.400000 0.166759
389.500000 0.165915
389.600000 0.165070
389.700000 0.164209
389.800000 0.163347
389.900000 0.162483
390.000000 0.161618
390.100000 0.160805
390.200000 0.159990
390.300000 0.159173
390.400000 0.158354
390.500000 0.157546
390.600000 0.156693
390.700000 0.155824
390.800000 0.154954
390.900000 0.154082
391.000000 0.153208
391.100000 0.152321
391.200000 0.151432
391.300000 0.150541
391.400000 0.149649
391.500000 0.148769
391.600000 0.147887
391.700000 0.146990
391.800000 0.146091
391.900000 0.145190
392.000000 0.144287
392.100000 0.143425
392.200000 0.142561
392.300000 0.141695
392.400000 0.140826
392.500000 0.139969
392.600000 0.139070
392.700000 0.138156
392.800000 0.137239
392.900000 0.136320
393.000000 0.135400
393.100000 0.134481
393.200000 0.133561
393.300000 0.132638
393.400000 0.131713
393.500000 0.130801
393.600000 0.129923
393.700000 0.129028
393.800000 0.128131
393.900000 0.127231
394.000000 0.126329
394.100000 0.125387
394.200000 0.124444
394.300000 0.123499
394.400000 0.122552
394.500000 0.121619
394.600000 0.120683
394.700000 0.119732
394.800000 0.118778
394.900000 0.117824
395.000000 0.116867
395.100000 0.115901
395.200000 0.114934
395.300000 0.113966
395.400000 0.112996
395.500000 0.112039
395.600000 0.111081
395.700000 0.110107
395.800000 0.109131
395.900000 0.108154
396.000000 0.107176
396.100000 0.106226
396.200000 0.105274
396.300000 0.104319
396.400000 0.103362
396.500000 0.102417
396.600000 0.101441
396.700000 0.100449
396.800000 0.099454
396.900000 0.098457
397.000000 0.097458
397.100000 0.096459
397.200000 0.095458
397.300000 0.094454
397.400000 0.093448
397.500000 0.092455
397.600000 0.091459
397.700000 0.090446
397.800000 0.089431
397.900000 0.088414
398.000000 0.087394
398.100000 0.086369
398.200000 0.085342
398.300000 0.084313
398.400000 0.083283
398.500000 0.082265
398.600000 0.081269
398.700000 0.080255
398.800000 0.079238
398.900000 0.078219
399.000000 0.077197
399.100000 0.076152
399.200000 0.075105
399.300000 0.074056
399.400000 0.073006
399.500000 0.071969
399.600000 0.070931
399.700000 0.069875
399.800000 0.068818
399.900000 0.067759
400.000000 0.066699
400.100000 0.065633
400.200000 0.064565
400.300000 0.063496
400.400000 0.062426
400.500000 0.061369
400.600000 0.060310
400.700000 0.059235
400.800000 0.058157
400.900000 0.057078
401.000000 0.055998
401.100000 0.054929
401.200000 0.053859
401.300000 0.052786
401.400000 0.051711
401.500000 0.050649
401.600000 0.049572
401.700000 0.048477
401.800000 0.047381
401.900000 0.046284
402.000000 0.045184
402.100000 0.044085
402.200000 0.042985
402.300000 0.041882
402.400000 0.040778
402.500000 0.039688
402.600000 0.038596
402.700000 0.037487
402.800000 0.036376
402.900000 0.035263
403.000000 0.034149
403.100000 0.033033
403.200000 0.031916
403.300000 0.030797
403.400000 0.029677
403.500000 0.028852
403.600000 0.028027
403.700000 0.027467
403.800000 0.026907
403.900000 0.026361
404.000000 0.025815
404.100000 0.025264
404.200000 0.024713
404.300000 0.024146
404.400000 0.023577
404.500000 0.023024
404.600000 0.022475
404.700000 0.021911
404.800000 0.021344
404.900000 0.020793
405.000000 0.020241
405.100000 0.019683
405.200000 0.019124
405.300000 0.018549
405.400000 0.017972
405.500000 0.017411
405.600000 0.016849
405.700000 0.016271
405.800000 0.015691
405.900000 0.015126
406.000000 0.014561
406.100000 0.013995
406.200000 0.013429
406.300000 0.012845
406.400000 0.012261
406.500000 0.011692
406.600000 0.011122
406.700000 0.010535
406.800000 0.009947
406.900000 0.009375
407.000000 0.008801
407.100000 0.008227
407.200000 0.007651
407.300000 0.007059
407.400000 0.006466
407.500000 0.005888
407.600000 0.005309
407.700000 0.004713
407.800000 0.004117
407.900000 0.003536
408.000000 0.002954
408.100000 0.002371
408.200000 0.001788
408.300000 0.001187
408.400000 0.000586
408.500000 0.000293
